time,voltage
1.11111111111111e-05,4.092
0.0027888888888888,4.063
0.0055666666666666,4.05
0.0083444444444444,4.039
0.0111222222222222,4.03
0.0139,4.023
0.0166777777777778,4.016
0.0194555555555556,4.01
0.0222333333333333,4.005
0.0250111111111111,4.0
0.0277888888888889,3.995
0.0305666666666667,3.991
0.0333444444444444,3.987
0.0361222222222222,3.983
0.0389,3.98
0.0416777777777778,3.977
0.0444555555555556,3.974
0.0472333333333333,3.971
0.0500111111111111,3.968
0.0527888888888889,3.965
0.0555666666666667,3.962
0.0583444444444444,3.96
0.0611222222222222,3.957
0.0639,3.955
0.0666777777777778,3.953
0.0694555555555555,3.95
0.0722333333333333,3.948
0.0750111111111111,3.946
0.0777888888888889,3.943
0.0805666666666667,3.941
0.0833444444444444,3.939
0.0861222222222222,3.937
0.0889,3.935
0.0916777777777778,3.933
0.0944555555555556,3.931
0.0972333333333333,3.929
0.100011111111111,3.927
0.102788888888889,3.925
0.105566666666667,3.923
0.108344444444444,3.921
0.111122222222222,3.92
0.1139,3.918
0.116677777777778,3.916
0.119455555555556,3.914
0.122233333333333,3.912
0.125011111111111,3.911
0.127788888888889,3.909
0.130566666666667,3.907
0.133344444444444,3.905
0.136122222222222,3.904
0.1389,3.902
0.141677777777778,3.9
0.144455555555556,3.898
0.147233333333333,3.897
0.150011111111111,3.895
0.152788888888889,3.893
0.155566666666667,3.892
0.158344444444444,3.89
0.161122222222222,3.889
0.1639,3.887
0.166677777777778,3.885
0.169455555555556,3.884
0.172233333333333,3.882
0.175011111111111,3.88
0.177788888888889,3.879
0.180566666666667,3.877
0.183344444444444,3.876
0.186122222222222,3.874
0.1889,3.872
0.191677777777778,3.871
0.194455555555556,3.869
0.197233333333333,3.868
0.200011111111111,3.866
0.202788888888889,3.865
0.205566666666667,3.863
0.208344444444444,3.861
0.211122222222222,3.86
0.2139,3.858
0.216677777777778,3.857
0.219455555555556,3.855
0.222233333333333,3.854
0.225011111111111,3.852
0.227788888888889,3.851
0.230566666666667,3.849
0.233344444444444,3.848
0.236122222222222,3.846
0.2389,3.845
0.241677777777778,3.843
0.244455555555556,3.842
0.247233333333333,3.84
0.250011111111111,3.839
0.252788888888889,3.837
0.255566666666667,3.836
0.258344444444444,3.834
0.261122222222222,3.833
0.2639,3.831
0.266677777777778,3.83
0.269455555555556,3.829
0.272233333333333,3.827
0.275011111111111,3.826
0.277788888888889,3.824
0.280566666666667,3.823
0.283344444444444,3.821
0.286122222222222,3.82
0.2889,3.818
0.291677777777778,3.817
0.294455555555556,3.816
0.297233333333333,3.814
0.300011111111111,3.813
0.302788888888889,3.812
0.305566666666667,3.81
0.308344444444444,3.809
0.311122222222222,3.807
0.3139,3.806
0.316677777777778,3.804
0.319455555555556,3.803
0.322233333333333,3.802
0.325011111111111,3.8
0.327788888888889,3.799
0.330566666666667,3.798
0.333344444444444,3.796
0.336122222222222,3.795
0.3389,3.794
0.341677777777778,3.792
0.344455555555556,3.791
0.347233333333333,3.789
0.350011111111111,3.788
0.352788888888889,3.787
0.355566666666667,3.785
0.358344444444444,3.784
0.361122222222222,3.783
0.3639,3.781
0.366677777777778,3.78
0.369455555555556,3.779
0.372233333333333,3.778
0.375011111111111,3.776
0.377788888888889,3.775
0.380566666666667,3.773
0.383344444444444,3.772
0.386122222222222,3.771
0.3889,3.769
0.391677777777778,3.768
0.394455555555556,3.767
0.397233333333333,3.766
0.400011111111111,3.764
0.402788888888889,3.763
0.405566666666667,3.762
0.408344444444444,3.761
0.411122222222222,3.759
0.4139,3.758
0.416677777777778,3.757
0.419455555555556,3.756
0.422233333333333,3.754
0.425011111111111,3.753
0.427788888888889,3.752
0.430566666666667,3.751
0.433344444444444,3.749
0.436122222222222,3.748
0.4389,3.747
0.441677777777778,3.746
0.444455555555556,3.744
0.447233333333333,3.743
0.450011111111111,3.742
0.452788888888889,3.741
0.455566666666667,3.74
0.458344444444444,3.738
0.461122222222222,3.737
0.4639,3.736
0.466677777777778,3.735
0.469455555555556,3.733
0.472233333333333,3.732
0.475011111111111,3.731
0.477788888888889,3.73
0.480566666666667,3.729
0.483344444444444,3.727
0.486122222222222,3.726
0.4889,3.725
0.491677777777778,3.724
0.494455555555556,3.723
0.497233333333333,3.722
0.500011111111111,3.72
0.502788888888889,3.719
0.505566666666667,3.718
0.508344444444444,3.717
0.511122222222222,3.716
0.5139,3.715
0.516677777777778,3.713
0.519455555555556,3.712
0.522233333333333,3.711
0.525011111111111,3.71
0.527788888888889,3.709
0.530566666666667,3.708
0.533344444444444,3.707
0.536122222222222,3.706
0.5389,3.704
0.541677777777778,3.703
0.544455555555556,3.702
0.547233333333333,3.701
0.550011111111111,3.7
0.552788888888889,3.699
0.555566666666667,3.698
0.558344444444444,3.697
0.561122222222222,3.696
0.5639,3.694
0.566677777777778,3.693
0.569455555555555,3.692
0.572233333333333,3.691
0.575011111111111,3.69
0.577788888888889,3.689
0.580566666666667,3.688
0.583344444444444,3.687
0.586122222222222,3.686
0.5889,3.685
0.591677777777778,3.684
0.594455555555556,3.683
0.597233333333333,3.682
0.600011111111111,3.681
0.602788888888889,3.679
0.605566666666667,3.678
0.608344444444444,3.677
0.611122222222222,3.676
0.6139,3.675
0.616677777777778,3.674
0.619455555555556,3.673
0.622233333333333,3.672
0.625011111111111,3.671
0.627788888888889,3.67
0.630566666666667,3.669
0.633344444444444,3.668
0.636122222222222,3.667
0.6389,3.666
0.641677777777778,3.665
0.644455555555556,3.664
0.647233333333333,3.663
0.650011111111111,3.662
0.652788888888889,3.661
0.655566666666667,3.66
0.658344444444444,3.659
0.661122222222222,3.658
0.6639,3.657
0.666677777777778,3.656
0.669455555555556,3.655
0.672233333333333,3.654
0.675011111111111,3.653
0.677788888888889,3.652
0.680566666666667,3.651
0.683344444444444,3.65
0.686122222222222,3.649
0.6889,3.648
0.691677777777778,3.647
0.694455555555555,3.646
0.697233333333333,3.646
0.700011111111111,3.645
0.702788888888889,3.643
0.705566666666667,3.642
0.708344444444444,3.642
0.711122222222222,3.641
0.7139,3.64
0.716677777777778,3.639
0.719455555555556,3.638
0.722233333333333,3.637
0.725011111111111,3.636
0.727788888888889,3.635
0.730566666666667,3.634
0.733344444444444,3.633
0.736122222222222,3.632
0.7389,3.631
0.741677777777778,3.63
0.744455555555556,3.629
0.747233333333333,3.629
0.750011111111111,3.628
0.752788888888889,3.627
0.755566666666667,3.626
0.758344444444444,3.625
0.761122222222222,3.624
0.7639,3.623
0.766677777777778,3.622
0.769455555555556,3.621
0.772233333333333,3.62
0.775011111111111,3.62
0.777788888888889,3.619
0.780566666666667,3.618
0.783344444444444,3.617
0.786122222222222,3.616
0.7889,3.615
0.791677777777778,3.614
0.794455555555556,3.614
0.797233333333333,3.613
0.800011111111111,3.612
0.802788888888889,3.611
0.805566666666667,3.61
0.808344444444444,3.609
0.811122222222222,3.608
0.8139,3.607
0.816677777777778,3.607
0.819455555555555,3.606
0.822233333333333,3.605
0.825011111111111,3.604
0.827788888888889,3.603
0.830566666666667,3.603
0.833344444444444,3.601
0.836122222222222,3.601
0.8389,3.6
0.841677777777778,3.599
0.844455555555556,3.598
0.847233333333333,3.597
0.850011111111111,3.597
0.852788888888889,3.596
0.855566666666667,3.595
0.858344444444444,3.594
0.861122222222222,3.593
0.8639,3.592
0.866677777777778,3.592
0.869455555555556,3.591
0.872233333333333,3.59
0.875011111111111,3.589
0.877788888888889,3.588
0.880566666666667,3.534
0.883344444444444,3.528
0.886122222222222,3.532
0.8889,3.53
0.891677777777778,3.525
0.894455555555556,3.509
0.897233333333333,3.51
0.900011111111111,3.515
0.902788888888889,3.502
0.905566666666667,3.504
0.908344444444444,3.552
0.911122222222222,3.556
0.9139,3.559
0.916677777777778,3.561
0.919455555555556,3.562
0.922233333333333,3.563
0.925011111111111,3.563
0.927788888888889,3.563
0.930566666666667,3.563
0.933344444444444,3.563
0.936122222222222,3.563
0.9389,3.562
0.941677777777778,3.562
0.944455555555555,3.562
0.947233333333333,3.561
0.950011111111111,3.561
0.952788888888889,3.56
0.955566666666667,3.56
0.958344444444444,3.537
0.961122222222222,3.54
0.9639,3.546
0.966677777777778,3.543
0.969455555555556,3.541
0.972233333333333,3.544
0.975011111111111,3.542
0.977788888888889,3.539
0.980566666666667,3.547
0.983344444444444,3.547
0.986122222222222,3.548
0.9889,3.548
0.991677777777778,3.547
0.994455555555556,3.547
0.997233333333333,3.547
1.00001111111111,3.546
1.00278888888889,3.545
1.00556666666667,3.545
1.00834444444444,3.544
1.01112222222222,3.544
1.0139,3.543
1.01667777777778,3.542
1.01945555555556,3.542
1.02223333333333,3.541
1.02501111111111,3.54
1.02778888888889,3.54
1.03056666666667,3.539
1.03334444444444,3.538
1.03612222222222,3.537
1.0389,3.535
1.04167777777778,3.529
1.04445555555556,3.527
1.04723333333333,3.529
1.05001111111111,3.532
1.05278888888889,3.531
1.05556666666667,3.531
1.05834444444444,3.531
1.06112222222222,3.53
1.0639,3.529
1.06667777777778,3.529
1.06945555555556,3.528
1.07223333333333,3.527
1.07501111111111,3.526
1.07778888888889,3.526
1.08056666666667,3.525
1.08334444444444,3.519
1.08612222222222,3.518
1.0889,3.52
1.09167777777778,3.519
1.09445555555556,3.518
1.09723333333333,3.517
1.10001111111111,3.517
1.10278888888889,3.516
1.10556666666667,3.516
1.10834444444444,3.515
1.11112222222222,3.514
1.1139,3.514
1.11667777777778,3.513
1.11945555555556,3.512
1.12223333333333,3.511
1.12501111111111,3.51
1.12778888888889,3.51
1.13056666666667,3.509
1.13334444444444,3.508
1.13612222222222,3.507
1.1389,3.506
1.14167777777778,3.505
1.14445555555556,3.504
1.14723333333333,3.503
1.15001111111111,3.502
1.15278888888889,3.501
1.15556666666667,3.5
1.15834444444444,3.499
1.16112222222222,3.498
1.1639,3.497
1.16667777777778,3.496
1.16945555555556,3.495
1.17223333333333,3.494
1.17501111111111,3.493
1.17778888888889,3.492
1.18056666666667,3.491
1.18334444444444,3.49
1.18612222222222,3.489
1.1889,3.488
1.19167777777778,3.487
1.19445555555556,3.485
1.19723333333333,3.484
1.20001111111111,3.483
1.20278888888889,3.482
1.20556666666667,3.481
1.20834444444444,3.48
1.21112222222222,3.479
1.2139,3.477
1.21667777777778,3.476
1.21945555555556,3.475
1.22223333333333,3.474
1.22501111111111,3.472
1.22778888888889,3.471
1.23056666666667,3.47
1.23334444444444,3.468
1.23612222222222,3.467
1.2389,3.466
1.24167777777778,3.464
1.24445555555556,3.463
1.24723333333333,3.462
1.25001111111111,3.46
1.25278888888889,3.459
1.25556666666667,3.457
1.25834444444444,3.456
1.26112222222222,3.454
1.2639,3.453
1.26667777777778,3.451
1.26945555555556,3.449
1.27223333333333,3.448
1.27501111111111,3.446
1.27778888888889,3.444
1.28056666666667,3.443
1.28334444444444,3.441
1.28612222222222,3.439
1.2889,3.438
1.29167777777778,3.436
1.29445555555556,3.434
1.29723333333333,3.432
1.30001111111111,3.43
1.30278888888889,3.428
1.30556666666667,3.426
1.30834444444444,3.425
1.31112222222222,3.423
1.3139,3.421
1.31667777777778,3.418
1.31945555555556,3.416
1.32223333333333,3.414
1.32501111111111,3.412
1.32778888888889,3.41
1.33056666666667,3.408
1.33334444444444,3.405
1.33612222222222,3.403
1.3389,3.401
1.34167777777778,3.398
1.34445555555556,3.396
1.34723333333333,3.393
1.35001111111111,3.391
1.35278888888889,3.388
1.35556666666667,3.385
1.35834444444444,3.383
1.36112222222222,3.38
1.3639,3.377
1.36667777777778,3.374
1.36945555555556,3.371
1.37223333333333,3.368
1.37501111111111,3.365
1.37778888888889,3.362
1.38056666666667,3.359
1.38334444444444,3.356
1.38612222222222,3.352
1.3889,3.349
1.39167777777778,3.346
1.39445555555556,3.342
1.39723333333333,3.338
1.40001111111111,3.335
1.40278888888889,3.331
1.40556666666667,3.327
1.40834444444444,3.323
1.41112222222222,3.319
1.4139,3.315
1.41667777777778,3.311
1.41945555555556,3.306
1.42223333333333,3.302
1.42501111111111,3.297
1.42778888888889,3.292
1.43056666666667,3.287
1.43334444444444,3.282
1.43612222222222,3.277
1.4389,3.272
1.44167777777778,3.266
1.44445555555556,3.261
1.44723333333333,3.255
1.45001111111111,3.249
1.45278888888889,3.243
1.45556666666667,3.237
1.45834444444444,3.23
1.46112222222222,3.223
1.4639,3.216
1.46667777777778,3.209
1.46945555555556,3.202
1.47008888888889,3.2
