time,voltage
1.11111111111111e-05,4.113
0.00278888888888889,4.099
0.00556666666666667,4.091
0.00834444444444444,4.085
0.0111222222222222,4.079
0.0139,4.075
0.0166777777777778,4.071
0.0194555555555556,4.067
0.0222333333333333,4.063
0.0250111111111111,4.06
0.0277888888888889,4.058
0.0305666666666667,4.055
0.0333444444444444,4.053
0.0361222222222222,4.05
0.0389,4.048
0.0416777777777778,4.046
0.0444555555555556,4.044
0.0472333333333333,4.043
0.0500111111111111,4.041
0.0527888888888889,4.039
0.0555666666666667,4.038
0.0583444444444444,4.036
0.0611222222222222,4.034
0.0639,4.033
0.0666777777777778,4.031
0.0694555555555555,4.03
0.0722333333333333,4.028
0.0750111111111111,4.027
0.0777888888888889,4.025
0.0805666666666667,4.024
0.0833444444444444,4.023
0.0861222222222222,4.021
0.0889,4.02
0.0916777777777778,4.018
0.0944555555555556,4.017
0.0972333333333333,4.015
0.100011111111111,4.014
0.102788888888889,4.013
0.105566666666667,4.011
0.108344444444444,4.01
0.111122222222222,4.009
0.1139,4.007
0.116677777777778,4.006
0.119455555555556,4.005
0.122233333333333,4.003
0.125011111111111,4.002
0.127788888888889,4.001
0.130566666666667,3.999
0.133344444444444,3.998
0.136122222222222,3.997
0.1389,3.996
0.141677777777778,3.994
0.144455555555556,3.993
0.147233333333333,3.992
0.150011111111111,3.99
0.152788888888889,3.989
0.155566666666667,3.988
0.158344444444444,3.987
0.161122222222222,3.985
0.1639,3.984
0.166677777777778,3.983
0.169455555555556,3.982
0.172233333333333,3.98
0.175011111111111,3.979
0.177788888888889,3.978
0.180566666666667,3.977
0.183344444444444,3.975
0.186122222222222,3.974
0.1889,3.973
0.191677777777778,3.971
0.194455555555556,3.97
0.197233333333333,3.969
0.200011111111111,3.968
0.202788888888889,3.966
0.205566666666667,3.965
0.208344444444444,3.964
0.211122222222222,3.963
0.2139,3.961
0.216677777777778,3.96
0.219455555555556,3.959
0.222233333333333,3.958
0.225011111111111,3.957
0.227788888888889,3.956
0.230566666666667,3.954
0.233344444444444,3.953
0.236122222222222,3.952
0.2389,3.951
0.241677777777778,3.949
0.244455555555556,3.948
0.247233333333333,3.947
0.250011111111111,3.946
0.252788888888889,3.945
0.255566666666667,3.943
0.258344444444444,3.942
0.261122222222222,3.941
0.2639,3.94
0.266677777777778,3.939
0.269455555555556,3.937
0.272233333333333,3.936
0.275011111111111,3.935
0.277788888888889,3.934
0.280566666666667,3.933
0.283344444444444,3.932
0.286122222222222,3.931
0.2889,3.929
0.291677777777778,3.928
0.294455555555556,3.927
0.297233333333333,3.926
0.300011111111111,3.925
0.302788888888889,3.924
0.305566666666667,3.922
0.308344444444444,3.921
0.311122222222222,3.92
0.3139,3.919
0.316677777777778,3.918
0.319455555555556,3.917
0.322233333333333,3.915
0.325011111111111,3.914
0.327788888888889,3.913
0.330566666666667,3.912
0.333344444444444,3.911
0.336122222222222,3.91
0.3389,3.909
0.341677777777778,3.907
0.344455555555556,3.906
0.347233333333333,3.905
0.350011111111111,3.904
0.352788888888889,3.903
0.355566666666667,3.902
0.358344444444444,3.901
0.361122222222222,3.9
0.3639,3.898
0.366677777777778,3.897
0.369455555555556,3.896
0.372233333333333,3.895
0.375011111111111,3.894
0.377788888888889,3.893
0.380566666666667,3.892
0.383344444444444,3.891
0.386122222222222,3.89
0.3889,3.889
0.391677777777778,3.888
0.394455555555556,3.886
0.397233333333333,3.885
0.400011111111111,3.884
0.402788888888889,3.883
0.405566666666667,3.882
0.408344444444444,3.881
0.411122222222222,3.88
0.4139,3.879
0.416677777777778,3.878
0.419455555555556,3.877
0.422233333333333,3.876
0.425011111111111,3.875
0.427788888888889,3.874
0.430566666666667,3.873
0.433344444444444,3.872
0.436122222222222,3.87
0.4389,3.869
0.441677777777778,3.868
0.444455555555556,3.867
0.447233333333333,3.866
0.450011111111111,3.865
0.452788888888889,3.864
0.455566666666667,3.863
0.458344444444444,3.862
0.461122222222222,3.861
0.4639,3.86
0.466677777777778,3.859
0.469455555555556,3.858
0.472233333333333,3.857
0.475011111111111,3.856
0.477788888888889,3.855
0.480566666666667,3.854
0.483344444444444,3.853
0.486122222222222,3.852
0.4889,3.851
0.491677777777778,3.85
0.494455555555556,3.849
0.497233333333333,3.848
0.500011111111111,3.847
0.502788888888889,3.846
0.505566666666667,3.845
0.508344444444444,3.844
0.511122222222222,3.843
0.5139,3.842
0.516677777777778,3.841
0.519455555555556,3.84
0.522233333333333,3.839
0.525011111111111,3.838
0.527788888888889,3.837
0.530566666666667,3.836
0.533344444444444,3.836
0.536122222222222,3.834
0.5389,3.834
0.541677777777778,3.833
0.544455555555556,3.831
0.547233333333333,3.831
0.550011111111111,3.83
0.552788888888889,3.829
0.555566666666667,3.828
0.558344444444444,3.827
0.561122222222222,3.826
0.5639,3.825
0.566677777777778,3.824
0.569455555555555,3.823
0.572233333333333,3.822
0.575011111111111,3.821
0.577788888888889,3.82
0.580566666666667,3.819
0.583344444444444,3.818
0.586122222222222,3.818
0.5889,3.817
0.591677777777778,3.816
0.594455555555556,3.815
0.597233333333333,3.814
0.600011111111111,3.813
0.602788888888889,3.812
0.605566666666667,3.811
0.608344444444444,3.81
0.611122222222222,3.809
0.6139,3.808
0.616677777777778,3.808
0.619455555555556,3.807
0.622233333333333,3.806
0.625011111111111,3.805
0.627788888888889,3.804
0.630566666666667,3.803
0.633344444444444,3.802
0.636122222222222,3.801
0.6389,3.801
0.641677777777778,3.8
0.644455555555556,3.799
0.647233333333333,3.798
0.650011111111111,3.797
0.652788888888889,3.796
0.655566666666667,3.796
0.658344444444444,3.795
0.661122222222222,3.794
0.6639,3.793
0.666677777777778,3.792
0.669455555555556,3.791
0.672233333333333,3.79
0.675011111111111,3.79
0.677788888888889,3.789
0.680566666666667,3.788
0.683344444444444,3.787
0.686122222222222,3.786
0.6889,3.785
0.691677777777778,3.784
0.694455555555555,3.784
0.697233333333333,3.783
0.700011111111111,3.782
0.702788888888889,3.781
0.705566666666667,3.781
0.708344444444444,3.78
0.711122222222222,3.779
0.7139,3.778
0.716677777777778,3.777
0.719455555555556,3.777
0.722233333333333,3.776
0.725011111111111,3.775
0.727788888888889,3.774
0.730566666666667,3.773
0.733344444444444,3.773
0.736122222222222,3.772
0.7389,3.771
0.741677777777778,3.77
0.744455555555556,3.77
0.747233333333333,3.769
0.750011111111111,3.768
0.752788888888889,3.767
0.755566666666667,3.766
0.758344444444444,3.766
0.761122222222222,3.765
0.7639,3.764
0.766677777777778,3.763
0.769455555555556,3.763
0.772233333333333,3.762
0.775011111111111,3.761
0.777788888888889,3.76
0.780566666666667,3.76
0.783344444444444,3.759
0.786122222222222,3.758
0.7889,3.757
0.791677777777778,3.757
0.794455555555556,3.756
0.797233333333333,3.755
0.800011111111111,3.754
0.802788888888889,3.754
0.805566666666667,3.753
0.808344444444444,3.752
0.811122222222222,3.752
0.8139,3.751
0.816677777777778,3.75
0.819455555555555,3.75
0.822233333333333,3.749
0.825011111111111,3.748
0.827788888888889,3.747
0.830566666666667,3.747
0.833344444444444,3.746
0.836122222222222,3.745
0.8389,3.745
0.841677777777778,3.744
0.844455555555556,3.743
0.847233333333333,3.742
0.850011111111111,3.742
0.852788888888889,3.741
0.855566666666667,3.74
0.858344444444444,3.74
0.861122222222222,3.739
0.8639,3.738
0.866677777777778,3.738
0.869455555555556,3.737
0.872233333333333,3.736
0.875011111111111,3.736
0.877788888888889,3.735
0.880566666666667,3.734
0.883344444444444,3.734
0.886122222222222,3.733
0.8889,3.732
0.891677777777778,3.732
0.894455555555556,3.731
0.897233333333333,3.73
0.900011111111111,3.73
0.902788888888889,3.729
0.905566666666667,3.728
0.908344444444444,3.728
0.911122222222222,3.727
0.9139,3.726
0.916677777777778,3.726
0.919455555555556,3.725
0.922233333333333,3.725
0.925011111111111,3.724
0.927788888888889,3.723
0.930566666666667,3.723
0.933344444444444,3.722
0.936122222222222,3.722
0.9389,3.721
0.941677777777778,3.72
0.944455555555555,3.72
0.947233333333333,3.719
0.950011111111111,3.718
0.952788888888889,3.718
0.955566666666667,3.717
0.958344444444444,3.716
0.961122222222222,3.716
0.9639,3.715
0.966677777777778,3.715
0.969455555555556,3.714
0.972233333333333,3.713
0.975011111111111,3.713
0.977788888888889,3.712
0.980566666666667,3.712
0.983344444444444,3.711
0.986122222222222,3.71
0.9889,3.71
0.991677777777778,3.709
0.994455555555556,3.709
0.997233333333333,3.708
1.00001111111111,3.707
1.00278888888889,3.707
1.00556666666667,3.706
1.00834444444444,3.706
1.01112222222222,3.705
1.0139,3.704
1.01667777777778,3.704
1.01945555555556,3.703
1.02223333333333,3.703
1.02501111111111,3.702
1.02778888888889,3.701
1.03056666666667,3.701
1.03334444444444,3.7
1.03612222222222,3.7
1.0389,3.699
1.04167777777778,3.699
1.04445555555556,3.698
1.04723333333333,3.697
1.05001111111111,3.697
1.05278888888889,3.696
1.05556666666667,3.696
1.05834444444444,3.695
1.06112222222222,3.695
1.0639,3.694
1.06667777777778,3.693
1.06945555555556,3.693
1.07223333333333,3.693
1.07501111111111,3.692
1.07778888888889,3.691
1.08056666666667,3.691
1.08334444444444,3.69
1.08612222222222,3.69
1.0889,3.689
1.09167777777778,3.689
1.09445555555556,3.688
1.09723333333333,3.688
1.10001111111111,3.687
1.10278888888889,3.687
1.10556666666667,3.686
1.10834444444444,3.685
1.11112222222222,3.685
1.1139,3.684
1.11667777777778,3.684
1.11945555555556,3.683
1.12223333333333,3.683
1.12501111111111,3.682
1.12778888888889,3.682
1.13056666666667,3.681
1.13334444444444,3.681
1.13612222222222,3.68
1.1389,3.68
1.14167777777778,3.679
1.14445555555556,3.679
1.14723333333333,3.678
1.15001111111111,3.678
1.15278888888889,3.677
1.15556666666667,3.677
1.15834444444444,3.676
1.16112222222222,3.676
1.1639,3.675
1.16667777777778,3.675
1.16945555555556,3.674
1.17223333333333,3.674
1.17501111111111,3.673
1.17778888888889,3.673
1.18056666666667,3.672
1.18334444444444,3.672
1.18612222222222,3.671
1.1889,3.671
1.19167777777778,3.67
1.19445555555556,3.67
1.19723333333333,3.669
1.20001111111111,3.669
1.20278888888889,3.668
1.20556666666667,3.668
1.20834444444444,3.667
1.21112222222222,3.667
1.2139,3.666
1.21667777777778,3.666
1.21945555555556,3.665
1.22223333333333,3.665
1.22501111111111,3.664
1.22778888888889,3.664
1.23056666666667,3.664
1.23334444444444,3.663
1.23612222222222,3.663
1.2389,3.662
1.24167777777778,3.662
1.24445555555556,3.661
1.24723333333333,3.661
1.25001111111111,3.66
1.25278888888889,3.66
1.25556666666667,3.659
1.25834444444444,3.659
1.26112222222222,3.659
1.2639,3.658
1.26667777777778,3.658
1.26945555555556,3.657
1.27223333333333,3.657
1.27501111111111,3.656
1.27778888888889,3.656
1.28056666666667,3.656
1.28334444444444,3.655
1.28612222222222,3.655
1.2889,3.654
1.29167777777778,3.654
1.29445555555556,3.654
1.29723333333333,3.653
1.30001111111111,3.653
1.30278888888889,3.652
1.30556666666667,3.652
1.30834444444444,3.651
1.31112222222222,3.651
1.3139,3.651
1.31667777777778,3.65
1.31945555555556,3.65
1.32223333333333,3.649
1.32501111111111,3.649
1.32778888888889,3.649
1.33056666666667,3.648
1.33334444444444,3.648
1.33612222222222,3.647
1.3389,3.647
1.34167777777778,3.647
1.34445555555556,3.646
1.34723333333333,3.646
1.35001111111111,3.645
1.35278888888889,3.645
1.35556666666667,3.645
1.35834444444444,3.644
1.36112222222222,3.644
1.3639,3.644
1.36667777777778,3.643
1.36945555555556,3.643
1.37223333333333,3.642
1.37501111111111,3.642
1.37778888888889,3.642
1.38056666666667,3.641
1.38334444444444,3.641
1.38612222222222,3.641
1.3889,3.64
1.39167777777778,3.64
1.39445555555556,3.64
1.39723333333333,3.639
1.40001111111111,3.639
1.40278888888889,3.639
1.40556666666667,3.638
1.40834444444444,3.638
1.41112222222222,3.637
1.4139,3.637
1.41667777777778,3.637
1.41945555555556,3.636
1.42223333333333,3.636
1.42501111111111,3.635
1.42778888888889,3.635
1.43056666666667,3.635
1.43334444444444,3.634
1.43612222222222,3.634
1.4389,3.634
1.44167777777778,3.633
1.44445555555556,3.633
1.44723333333333,3.633
1.45001111111111,3.632
1.45278888888889,3.632
1.45556666666667,3.632
1.45834444444444,3.631
1.46112222222222,3.631
1.4639,3.631
1.46667777777778,3.63
1.46945555555556,3.63
1.47223333333333,3.63
1.47501111111111,3.629
1.47778888888889,3.629
1.48056666666667,3.628
1.48334444444444,3.628
1.48612222222222,3.628
1.4889,3.627
1.49167777777778,3.627
1.49445555555556,3.627
1.49723333333333,3.626
1.50001111111111,3.626
1.50278888888889,3.626
1.50556666666667,3.625
1.50834444444444,3.625
1.51112222222222,3.625
1.5139,3.624
1.51667777777778,3.624
1.51945555555556,3.623
1.52223333333333,3.623
1.52501111111111,3.623
1.52778888888889,3.622
1.53056666666667,3.622
1.53334444444444,3.621
1.53612222222222,3.621
1.5389,3.621
1.54167777777778,3.621
1.54445555555556,3.62
1.54723333333333,3.62
1.55001111111111,3.619
1.55278888888889,3.619
1.55556666666667,3.619
1.55834444444444,3.618
1.56112222222222,3.618
1.5639,3.617
1.56667777777778,3.617
1.56945555555556,3.616
1.57223333333333,3.616
1.57501111111111,3.616
1.57778888888889,3.615
1.58056666666667,3.615
1.58334444444444,3.615
1.58612222222222,3.614
1.5889,3.614
1.59167777777778,3.613
1.59445555555556,3.613
1.59723333333333,3.613
1.60001111111111,3.612
1.60278888888889,3.612
1.60556666666667,3.611
1.60834444444444,3.611
1.61112222222222,3.611
1.6139,3.61
1.61667777777778,3.61
1.61945555555556,3.609
1.62223333333333,3.609
1.62501111111111,3.608
1.62778888888889,3.608
1.63056666666667,3.608
1.63334444444444,3.607
1.63612222222222,3.607
1.6389,3.606
1.64167777777778,3.606
1.64445555555556,3.605
1.64723333333333,3.605
1.65001111111111,3.604
1.65278888888889,3.604
1.65556666666667,3.603
1.65834444444444,3.603
1.66112222222222,3.602
1.6639,3.602
1.66667777777778,3.601
1.66945555555556,3.601
1.67223333333333,3.6
1.67501111111111,3.6
1.67778888888889,3.599
1.68056666666667,3.599
1.68334444444444,3.598
1.68612222222222,3.598
1.6889,3.597
1.69167777777778,3.597
1.69445555555556,3.596
1.69723333333333,3.596
1.70001111111111,3.595
1.70278888888889,3.595
1.70556666666667,3.594
1.70834444444444,3.593
1.71112222222222,3.593
1.7139,3.593
1.71667777777778,3.592
1.71945555555556,3.591
1.72223333333333,3.591
1.72501111111111,3.59
1.72778888888889,3.589
1.73056666666667,3.589
1.73334444444444,3.589
1.73612222222222,3.588
1.7389,3.587
1.74167777777778,3.587
1.74445555555556,3.586
1.74723333333333,3.586
1.75001111111111,3.585
1.75278888888889,3.584
1.75556666666667,3.584
1.75834444444444,3.583
1.76112222222222,3.583
1.7639,3.582
1.76667777777778,3.582
1.76945555555556,3.581
1.77223333333333,3.581
1.77501111111111,3.58
1.77778888888889,3.579
1.78056666666667,3.579
1.78334444444444,3.578
1.78612222222222,3.578
1.7889,3.577
1.79167777777778,3.577
1.79445555555556,3.576
1.79723333333333,3.575
1.80001111111111,3.575
1.80278888888889,3.574
1.80556666666667,3.574
1.80834444444444,3.573
1.81112222222222,3.573
1.8139,3.572
1.81667777777778,3.571
1.81945555555556,3.571
1.82223333333333,3.57
1.82501111111111,3.57
1.82778888888889,3.569
1.83056666666667,3.569
1.83334444444444,3.568
1.83612222222222,3.567
1.8389,3.567
1.84167777777778,3.566
1.84445555555556,3.565
1.84723333333333,3.565
1.85001111111111,3.564
1.85278888888889,3.563
1.85556666666667,3.563
1.85834444444444,3.562
1.86112222222222,3.561
1.8639,3.561
1.86667777777778,3.56
1.86945555555556,3.559
1.87223333333333,3.559
1.87501111111111,3.558
1.87778888888889,3.557
1.88056666666667,3.556
1.88334444444444,3.556
1.88612222222222,3.555
1.8889,3.554
1.89167777777778,3.553
1.89445555555556,3.552
1.89723333333333,3.551
1.90001111111111,3.551
1.90278888888889,3.55
1.90556666666667,3.549
1.90834444444444,3.548
1.91112222222222,3.547
1.9139,3.546
1.91667777777778,3.545
1.91945555555556,3.544
1.92223333333333,3.543
1.92501111111111,3.542
1.92778888888889,3.541
1.93056666666667,3.54
1.93334444444444,3.538
1.93612222222222,3.537
1.9389,3.536
1.94167777777778,3.535
1.94445555555556,3.533
1.94723333333333,3.532
1.95001111111111,3.531
1.95278888888889,3.529
1.95556666666667,3.528
1.95834444444444,3.526
1.96112222222222,3.525
1.9639,3.523
1.96667777777778,3.522
1.96945555555556,3.52
1.97223333333333,3.518
1.97501111111111,3.516
1.97778888888889,3.514
1.98056666666667,3.512
1.98334444444444,3.51
1.98612222222222,3.508
1.9889,3.506
1.99167777777778,3.504
1.99445555555556,3.501
1.99723333333333,3.499
2.00001111111111,3.496
2.00278888888889,3.493
2.00556666666667,3.491
2.00834444444444,3.488
2.01112222222222,3.485
2.0139,3.481
2.01667777777778,3.478
2.01945555555556,3.474
2.02223333333333,3.47
2.02501111111111,3.466
2.02778888888889,3.462
2.03056666666667,3.457
2.03334444444444,3.452
2.03612222222222,3.447
2.0389,3.441
2.04167777777778,3.436
2.04445555555556,3.43
2.04723333333333,3.423
2.05001111111111,3.416
2.05278888888889,3.409
2.05556666666667,3.401
2.05834444444444,3.393
2.06112222222222,3.385
2.0639,3.376
2.06667777777778,3.366
2.06945555555556,3.356
2.07223333333333,3.345
2.07501111111111,3.333
2.07778888888889,3.321
2.08056666666667,3.307
2.08334444444444,3.294
2.08612222222222,3.278
2.0889,3.262
2.09167777777778,3.245
2.09445555555556,3.226
2.09723333333333,3.206
2.09794444444444,3.2
