time,voltage
1.11111111111111e-05,4.07
0.0027888888888888,4.022
0.0055666666666666,4.005
0.0083444444444444,3.992
0.0111222222222222,3.981
0.0139,3.971
0.0166777777777778,3.963
0.0194555555555556,3.955
0.0222333333333333,3.948
0.0250111111111111,3.942
0.0277888888888889,3.936
0.0305666666666667,3.93
0.0333444444444444,3.925
0.0361222222222222,3.921
0.0389,3.916
0.0416777777777778,3.912
0.0444555555555556,3.908
0.0472333333333333,3.903
0.0500111111111111,3.9
0.0527888888888889,3.896
0.0555666666666667,3.893
0.0583444444444444,3.889
0.0611222222222222,3.886
0.0639,3.883
0.0666777777777778,3.879
0.0694555555555555,3.876
0.0722333333333333,3.873
0.0750111111111111,3.87
0.0777888888888889,3.867
0.0805666666666667,3.864
0.0833444444444444,3.862
0.0861222222222222,3.859
0.0889,3.856
0.0916777777777778,3.853
0.0944555555555556,3.851
0.0972333333333333,3.848
0.100011111111111,3.845
0.102788888888889,3.843
0.105566666666667,3.84
0.108344444444444,3.838
0.111122222222222,3.835
0.1139,3.833
0.116677777777778,3.83
0.119455555555556,3.828
0.122233333333333,3.825
0.125011111111111,3.823
0.127788888888889,3.82
0.130566666666667,3.818
0.133344444444444,3.816
0.136122222222222,3.813
0.1389,3.811
0.141677777777778,3.808
0.144455555555556,3.806
0.147233333333333,3.804
0.150011111111111,3.802
0.152788888888889,3.799
0.155566666666667,3.797
0.158344444444444,3.795
0.161122222222222,3.792
0.1639,3.79
0.166677777777778,3.788
0.169455555555556,3.786
0.172233333333333,3.784
0.175011111111111,3.781
0.177788888888889,3.779
0.180566666666667,3.777
0.183344444444444,3.775
0.186122222222222,3.773
0.1889,3.771
0.191677777777778,3.768
0.194455555555556,3.766
0.197233333333333,3.764
0.200011111111111,3.762
0.202788888888889,3.76
0.205566666666667,3.758
0.208344444444444,3.755
0.211122222222222,3.753
0.2139,3.751
0.216677777777778,3.749
0.219455555555556,3.747
0.222233333333333,3.745
0.225011111111111,3.743
0.227788888888889,3.741
0.230566666666667,3.739
0.233344444444444,3.737
0.236122222222222,3.735
0.2389,3.733
0.241677777777778,3.731
0.244455555555556,3.729
0.247233333333333,3.727
0.250011111111111,3.725
0.252788888888889,3.723
0.255566666666667,3.721
0.258344444444444,3.719
0.261122222222222,3.717
0.2639,3.715
0.266677777777778,3.713
0.269455555555556,3.711
0.272233333333333,3.709
0.275011111111111,3.707
0.277788888888889,3.705
0.280566666666667,3.703
0.283344444444444,3.701
0.286122222222222,3.7
0.2889,3.698
0.291677777777778,3.696
0.294455555555556,3.694
0.297233333333333,3.692
0.300011111111111,3.69
0.302788888888889,3.688
0.305566666666667,3.686
0.308344444444444,3.684
0.311122222222222,3.683
0.3139,3.681
0.316677777777778,3.679
0.319455555555556,3.677
0.322233333333333,3.675
0.325011111111111,3.674
0.327788888888889,3.672
0.330566666666667,3.67
0.333344444444444,3.668
0.336122222222222,3.667
0.3389,3.665
0.341677777777778,3.663
0.344455555555556,3.661
0.347233333333333,3.659
0.350011111111111,3.658
0.352788888888889,3.656
0.355566666666667,3.654
0.358344444444444,3.652
0.361122222222222,3.651
0.3639,3.649
0.366677777777778,3.647
0.369455555555556,3.646
0.372233333333333,3.644
0.375011111111111,3.642
0.377788888888889,3.64
0.380566666666667,3.639
0.383344444444444,3.637
0.386122222222222,3.635
0.3889,3.634
0.391677777777778,3.632
0.394455555555556,3.63
0.397233333333333,3.629
0.400011111111111,3.627
0.402788888888889,3.625
0.405566666666667,3.624
0.408344444444444,3.622
0.411122222222222,3.62
0.4139,3.619
0.416677777777778,3.617
0.419455555555556,3.616
0.422233333333333,3.614
0.425011111111111,3.612
0.427788888888889,3.611
0.430566666666667,3.609
0.433344444444444,3.608
0.436122222222222,3.606
0.4389,3.605
0.441677777777778,3.603
0.444455555555556,3.602
0.447233333333333,3.6
0.450011111111111,3.598
0.452788888888889,3.597
0.455566666666667,3.595
0.458344444444444,3.594
0.461122222222222,3.592
0.4639,3.591
0.466677777777778,3.589
0.469455555555556,3.588
0.472233333333333,3.586
0.475011111111111,3.585
0.477788888888889,3.583
0.480566666666667,3.582
0.483344444444444,3.58
0.486122222222222,3.579
0.4889,3.577
0.491677777777778,3.576
0.494455555555556,3.574
0.497233333333333,3.573
0.500011111111111,3.571
0.502788888888889,3.57
0.505566666666667,3.568
0.508344444444444,3.567
0.511122222222222,3.566
0.5139,3.564
0.516677777777778,3.563
0.519455555555556,3.561
0.522233333333333,3.56
0.525011111111111,3.558
0.527788888888889,3.557
0.530566666666667,3.556
0.533344444444444,3.554
0.536122222222222,3.553
0.5389,3.551
0.541677777777778,3.55
0.544455555555556,3.549
0.547233333333333,3.547
0.550011111111111,3.546
0.552788888888889,3.544
0.555566666666667,3.543
0.558344444444444,3.541
0.561122222222222,3.54
0.5639,3.539
0.566677777777778,3.537
0.569455555555555,3.536
0.572233333333333,3.534
0.575011111111111,3.533
0.577788888888889,3.532
0.580566666666667,3.53
0.583344444444444,3.529
0.586122222222222,3.527
0.5889,3.526
0.591677777777778,3.524
0.594455555555556,3.523
0.597233333333333,3.521
0.600011111111111,3.52
0.602788888888889,3.519
0.605566666666667,3.517
0.608344444444444,3.515
0.611122222222222,3.514
0.6139,3.513
0.616677777777778,3.511
0.619455555555556,3.51
0.622233333333333,3.508
0.625011111111111,3.507
0.627788888888889,3.505
0.630566666666667,3.504
0.633344444444444,3.502
0.636122222222222,3.501
0.6389,3.499
0.641677777777778,3.497
0.644455555555556,3.496
0.647233333333333,3.494
0.650011111111111,3.492
0.652788888888889,3.491
0.655566666666667,3.489
0.658344444444444,3.488
0.661122222222222,3.486
0.6639,3.484
0.666677777777778,3.483
0.669455555555556,3.481
0.672233333333333,3.479
0.675011111111111,3.478
0.677788888888889,3.476
0.680566666666667,3.474
0.683344444444444,3.472
0.686122222222222,3.47
0.6889,3.469
0.691677777777778,3.467
0.694455555555555,3.465
0.697233333333333,3.463
0.700011111111111,3.461
0.702788888888889,3.459
0.705566666666667,3.457
0.708344444444444,3.455
0.711122222222222,3.453
0.7139,3.452
0.716677777777778,3.45
0.719455555555556,3.448
0.722233333333333,3.446
0.725011111111111,3.444
0.727788888888889,3.442
0.730566666666667,3.439
0.733344444444444,3.437
0.736122222222222,3.435
0.7389,3.433
0.741677777777778,3.431
0.744455555555556,3.429
0.747233333333333,3.427
0.750011111111111,3.424
0.752788888888889,3.422
0.755566666666667,3.42
0.758344444444444,3.418
0.761122222222222,3.415
0.7639,3.413
0.766677777777778,3.411
0.769455555555556,3.408
0.772233333333333,3.406
0.775011111111111,3.403
0.777788888888889,3.401
0.780566666666667,3.398
0.783344444444444,3.396
0.786122222222222,3.394
0.7889,3.391
0.791677777777778,3.388
0.794455555555556,3.386
0.797233333333333,3.383
0.800011111111111,3.38
0.802788888888889,3.378
0.805566666666667,3.375
0.808344444444444,3.372
0.811122222222222,3.37
0.8139,3.367
0.816677777777778,3.364
0.819455555555555,3.361
0.822233333333333,3.359
0.825011111111111,3.356
0.827788888888889,3.353
0.830566666666667,3.35
0.833344444444444,3.347
0.836122222222222,3.344
0.8389,3.341
0.841677777777778,3.338
0.844455555555556,3.335
0.847233333333333,3.331
0.850011111111111,3.328
0.852788888888889,3.325
0.855566666666667,3.322
0.858344444444444,3.318
0.861122222222222,3.315
0.8639,3.312
0.866677777777778,3.308
0.869455555555556,3.305
0.872233333333333,3.301
0.875011111111111,3.298
0.877788888888889,3.294
0.880566666666667,3.29
0.883344444444444,3.286
0.886122222222222,3.283
0.8889,3.279
0.891677777777778,3.275
0.894455555555556,3.271
0.897233333333333,3.267
0.900011111111111,3.263
0.902788888888889,3.259
0.905566666666667,3.255
0.908344444444444,3.25
0.911122222222222,3.246
0.9139,3.241
0.916677777777778,3.237
0.919455555555556,3.232
0.922233333333333,3.227
0.925011111111111,3.223
0.927788888888889,3.218
0.930566666666667,3.213
0.933344444444444,3.208
0.936122222222222,3.203
0.93755,3.2
