time,voltage
1.11111111111111e-05,4.068
0.0027888888888888,4.019
0.0055666666666666,4.003
0.0083444444444444,3.99
0.0111222222222222,3.979
0.0139,3.969
0.0166777777777778,3.961
0.0194555555555556,3.953
0.0222333333333333,3.946
0.0250111111111111,3.94
0.0277888888888889,3.934
0.0305666666666667,3.929
0.0333444444444444,3.924
0.0361222222222222,3.919
0.0389,3.915
0.0416777777777778,3.91
0.0444555555555556,3.906
0.0472333333333333,3.903
0.0500111111111111,3.899
0.0527888888888889,3.895
0.0555666666666667,3.892
0.0583444444444444,3.889
0.0611222222222222,3.886
0.0639,3.883
0.0666777777777778,3.88
0.0694555555555555,3.877
0.0722333333333333,3.874
0.0750111111111111,3.871
0.0777888888888889,3.869
0.0805666666666667,3.866
0.0833444444444444,3.863
0.0861222222222222,3.861
0.0889,3.858
0.0916777777777778,3.856
0.0944555555555556,3.853
0.0972333333333333,3.851
0.100011111111111,3.849
0.102788888888889,3.846
0.105566666666667,3.844
0.108344444444444,3.842
0.111122222222222,3.839
0.1139,3.837
0.116677777777778,3.835
0.119455555555556,3.833
0.122233333333333,3.83
0.125011111111111,3.828
0.127788888888889,3.826
0.130566666666667,3.824
0.133344444444444,3.822
0.136122222222222,3.82
0.1389,3.818
0.141677777777778,3.816
0.144455555555556,3.814
0.147233333333333,3.811
0.150011111111111,3.809
0.152788888888889,3.807
0.155566666666667,3.805
0.158344444444444,3.803
0.161122222222222,3.801
0.1639,3.799
0.166677777777778,3.797
0.169455555555556,3.795
0.172233333333333,3.793
0.175011111111111,3.791
0.177788888888889,3.789
0.180566666666667,3.787
0.183344444444444,3.785
0.186122222222222,3.783
0.1889,3.781
0.191677777777778,3.78
0.194455555555556,3.778
0.197233333333333,3.776
0.200011111111111,3.774
0.202788888888889,3.772
0.205566666666667,3.77
0.208344444444444,3.768
0.211122222222222,3.766
0.2139,3.764
0.216677777777778,3.762
0.219455555555556,3.761
0.222233333333333,3.759
0.225011111111111,3.757
0.227788888888889,3.755
0.230566666666667,3.753
0.233344444444444,3.751
0.236122222222222,3.749
0.2389,3.748
0.241677777777778,3.746
0.244455555555556,3.744
0.247233333333333,3.742
0.250011111111111,3.74
0.252788888888889,3.739
0.255566666666667,3.737
0.258344444444444,3.735
0.261122222222222,3.733
0.2639,3.731
0.266677777777778,3.729
0.269455555555556,3.728
0.272233333333333,3.726
0.275011111111111,3.724
0.277788888888889,3.723
0.280566666666667,3.721
0.283344444444444,3.719
0.286122222222222,3.717
0.2889,3.715
0.291677777777778,3.714
0.294455555555556,3.712
0.297233333333333,3.71
0.300011111111111,3.709
0.302788888888889,3.707
0.305566666666667,3.705
0.308344444444444,3.703
0.311122222222222,3.702
0.3139,3.7
0.316677777777778,3.698
0.319455555555556,3.697
0.322233333333333,3.695
0.325011111111111,3.694
0.327788888888889,3.692
0.330566666666667,3.69
0.333344444444444,3.688
0.336122222222222,3.687
0.3389,3.685
0.341677777777778,3.684
0.344455555555556,3.682
0.347233333333333,3.68
0.350011111111111,3.678
0.352788888888889,3.677
0.355566666666667,3.675
0.358344444444444,3.674
0.361122222222222,3.672
0.3639,3.67
0.366677777777778,3.669
0.369455555555556,3.667
0.372233333333333,3.666
0.375011111111111,3.664
0.377788888888889,3.663
0.380566666666667,3.661
0.383344444444444,3.66
0.386122222222222,3.658
0.3889,3.656
0.391677777777778,3.655
0.394455555555556,3.653
0.397233333333333,3.652
0.400011111111111,3.65
0.402788888888889,3.648
0.405566666666667,3.647
0.408344444444444,3.646
0.411122222222222,3.644
0.4139,3.643
0.416677777777778,3.641
0.419455555555556,3.64
0.422233333333333,3.638
0.425011111111111,3.636
0.427788888888889,3.635
0.430566666666667,3.633
0.433344444444444,3.632
0.436122222222222,3.63
0.4389,3.629
0.441677777777778,3.628
0.444455555555556,3.626
0.447233333333333,3.625
0.450011111111111,3.623
0.452788888888889,3.622
0.455566666666667,3.62
0.458344444444444,3.619
0.461122222222222,3.617
0.4639,3.616
0.466677777777778,3.614
0.469455555555556,3.613
0.472233333333333,3.612
0.475011111111111,3.61
0.477788888888889,3.609
0.480566666666667,3.607
0.483344444444444,3.606
0.486122222222222,3.605
0.4889,3.603
0.491677777777778,3.602
0.494455555555556,3.6
0.497233333333333,3.599
0.500011111111111,3.598
0.502788888888889,3.596
0.505566666666667,3.595
0.508344444444444,3.594
0.511122222222222,3.592
0.5139,3.591
0.516677777777778,3.59
0.519455555555556,3.588
0.522233333333333,3.587
0.525011111111111,3.585
0.527788888888889,3.584
0.530566666666667,3.583
0.533344444444444,3.581
0.536122222222222,3.58
0.5389,3.579
0.541677777777778,3.577
0.544455555555556,3.576
0.547233333333333,3.575
0.550011111111111,3.573
0.552788888888889,3.572
0.555566666666667,3.571
0.558344444444444,3.569
0.561122222222222,3.568
0.5639,3.567
0.566677777777778,3.565
0.569455555555555,3.564
0.572233333333333,3.563
0.575011111111111,3.561
0.577788888888889,3.56
0.580566666666667,3.559
0.583344444444444,3.557
0.586122222222222,3.556
0.5889,3.555
0.591677777777778,3.554
0.594455555555556,3.552
0.597233333333333,3.551
0.600011111111111,3.55
0.602788888888889,3.548
0.605566666666667,3.547
0.608344444444444,3.546
0.611122222222222,3.545
0.6139,3.544
0.616677777777778,3.542
0.619455555555556,3.541
0.622233333333333,3.539
0.625011111111111,3.538
0.627788888888889,3.537
0.630566666666667,3.536
0.633344444444444,3.534
0.636122222222222,3.533
0.6389,3.532
0.641677777777778,3.531
0.644455555555556,3.529
0.647233333333333,3.528
0.650011111111111,3.527
0.652788888888889,3.525
0.655566666666667,3.524
0.658344444444444,3.523
0.661122222222222,3.522
0.6639,3.52
0.666677777777778,3.519
0.669455555555556,3.518
0.672233333333333,3.516
0.675011111111111,3.515
0.677788888888889,3.513
0.680566666666667,3.512
0.683344444444444,3.511
0.686122222222222,3.51
0.6889,3.508
0.691677777777778,3.507
0.694455555555555,3.506
0.697233333333333,3.504
0.700011111111111,3.503
0.702788888888889,3.502
0.705566666666667,3.5
0.708344444444444,3.499
0.711122222222222,3.497
0.7139,3.496
0.716677777777778,3.495
0.719455555555556,3.493
0.722233333333333,3.492
0.725011111111111,3.49
0.727788888888889,3.489
0.730566666666667,3.488
0.733344444444444,3.486
0.736122222222222,3.485
0.7389,3.483
0.741677777777778,3.482
0.744455555555556,3.48
0.747233333333333,3.479
0.750011111111111,3.477
0.752788888888889,3.476
0.755566666666667,3.474
0.758344444444444,3.473
0.761122222222222,3.471
0.7639,3.47
0.766677777777778,3.468
0.769455555555556,3.467
0.772233333333333,3.465
0.775011111111111,3.464
0.777788888888889,3.462
0.780566666666667,3.46
0.783344444444444,3.459
0.786122222222222,3.457
0.7889,3.456
0.791677777777778,3.454
0.794455555555556,3.453
0.797233333333333,3.451
0.800011111111111,3.449
0.802788888888889,3.447
0.805566666666667,3.446
0.808344444444444,3.444
0.811122222222222,3.443
0.8139,3.441
0.816677777777778,3.439
0.819455555555555,3.437
0.822233333333333,3.435
0.825011111111111,3.434
0.827788888888889,3.432
0.830566666666667,3.43
0.833344444444444,3.428
0.836122222222222,3.426
0.8389,3.424
0.841677777777778,3.423
0.844455555555556,3.421
0.847233333333333,3.419
0.850011111111111,3.417
0.852788888888889,3.415
0.855566666666667,3.413
0.858344444444444,3.411
0.861122222222222,3.409
0.8639,3.407
0.866677777777778,3.405
0.869455555555556,3.403
0.872233333333333,3.401
0.875011111111111,3.399
0.877788888888889,3.397
0.880566666666667,3.395
0.883344444444444,3.393
0.886122222222222,3.391
0.8889,3.388
0.891677777777778,3.386
0.894455555555556,3.384
0.897233333333333,3.382
0.900011111111111,3.38
0.902788888888889,3.378
0.905566666666667,3.375
0.908344444444444,3.373
0.911122222222222,3.371
0.9139,3.369
0.916677777777778,3.366
0.919455555555556,3.364
0.922233333333333,3.361
0.925011111111111,3.359
0.927788888888889,3.356
0.930566666666667,3.354
0.933344444444444,3.351
0.936122222222222,3.349
0.9389,3.346
0.941677777777778,3.344
0.944455555555555,3.341
0.947233333333333,3.339
0.950011111111111,3.336
0.952788888888889,3.333
0.955566666666667,3.331
0.958344444444444,3.328
0.961122222222222,3.325
0.9639,3.322
0.966677777777778,3.319
0.969455555555556,3.316
0.972233333333333,3.313
0.975011111111111,3.311
0.977788888888889,3.308
0.980566666666667,3.305
0.983344444444444,3.302
0.986122222222222,3.299
0.9889,3.295
0.991677777777778,3.292
0.994455555555556,3.289
0.997233333333333,3.286
1.00001111111111,3.283
1.00278888888889,3.279
1.00556666666667,3.276
1.00834444444444,3.272
1.01112222222222,3.269
1.0139,3.265
1.01667777777778,3.262
1.01945555555556,3.258
1.02223333333333,3.254
1.02501111111111,3.251
1.02778888888889,3.247
1.03056666666667,3.243
1.03334444444444,3.239
1.03612222222222,3.235
1.0389,3.231
1.04167777777778,3.227
1.04445555555556,3.223
1.04723333333333,3.218
1.05001111111111,3.214
1.05278888888889,3.209
1.05556666666667,3.205
1.05834444444444,3.2
1.05838055555556,3.2
