time,voltage
1.11111111111111e-05,4.089
0.0027888888888888,4.058
0.0055666666666666,4.045
0.0083444444444444,4.035
0.0111222222222222,4.026
0.0139,4.019
0.0166777777777778,4.012
0.0194555555555556,4.006
0.0222333333333333,4.001
0.0250111111111111,3.996
0.0277888888888889,3.991
0.0305666666666667,3.987
0.0333444444444444,3.984
0.0361222222222222,3.98
0.0389,3.976
0.0416777777777778,3.973
0.0444555555555556,3.97
0.0472333333333333,3.967
0.0500111111111111,3.964
0.0527888888888889,3.962
0.0555666666666667,3.959
0.0583444444444444,3.957
0.0611222222222222,3.954
0.0639,3.952
0.0666777777777778,3.949
0.0694555555555555,3.947
0.0722333333333333,3.945
0.0750111111111111,3.942
0.0777888888888889,3.94
0.0805666666666667,3.938
0.0833444444444444,3.936
0.0861222222222222,3.934
0.0889,3.932
0.0916777777777778,3.93
0.0944555555555556,3.928
0.0972333333333333,3.926
0.100011111111111,3.924
0.102788888888889,3.922
0.105566666666667,3.92
0.108344444444444,3.918
0.111122222222222,3.916
0.1139,3.914
0.116677777777778,3.913
0.119455555555556,3.911
0.122233333333333,3.909
0.125011111111111,3.907
0.127788888888889,3.905
0.130566666666667,3.904
0.133344444444444,3.902
0.136122222222222,3.9
0.1389,3.898
0.141677777777778,3.897
0.144455555555556,3.895
0.147233333333333,3.893
0.150011111111111,3.891
0.152788888888889,3.89
0.155566666666667,3.888
0.158344444444444,3.886
0.161122222222222,3.885
0.1639,3.883
0.166677777777778,3.881
0.169455555555556,3.88
0.172233333333333,3.878
0.175011111111111,3.876
0.177788888888889,3.875
0.180566666666667,3.873
0.183344444444444,3.872
0.186122222222222,3.87
0.1889,3.868
0.191677777777778,3.867
0.194455555555556,3.865
0.197233333333333,3.864
0.200011111111111,3.862
0.202788888888889,3.86
0.205566666666667,3.859
0.208344444444444,3.857
0.211122222222222,3.856
0.2139,3.854
0.216677777777778,3.852
0.219455555555556,3.851
0.222233333333333,3.849
0.225011111111111,3.848
0.227788888888889,3.846
0.230566666666667,3.845
0.233344444444444,3.844
0.236122222222222,3.842
0.2389,3.84
0.241677777777778,3.839
0.244455555555556,3.837
0.247233333333333,3.836
0.250011111111111,3.834
0.252788888888889,3.833
0.255566666666667,3.831
0.258344444444444,3.83
0.261122222222222,3.828
0.2639,3.827
0.266677777777778,3.826
0.269455555555556,3.824
0.272233333333333,3.822
0.275011111111111,3.821
0.277788888888889,3.82
0.280566666666667,3.818
0.283344444444444,3.817
0.286122222222222,3.815
0.2889,3.814
0.291677777777778,3.812
0.294455555555556,3.811
0.297233333333333,3.81
0.300011111111111,3.808
0.302788888888889,3.807
0.305566666666667,3.805
0.308344444444444,3.804
0.311122222222222,3.802
0.3139,3.801
0.316677777777778,3.799
0.319455555555556,3.798
0.322233333333333,3.797
0.325011111111111,3.795
0.327788888888889,3.794
0.330566666666667,3.793
0.333344444444444,3.791
0.336122222222222,3.79
0.3389,3.788
0.341677777777778,3.787
0.344455555555556,3.786
0.347233333333333,3.784
0.350011111111111,3.783
0.352788888888889,3.782
0.355566666666667,3.78
0.358344444444444,3.779
0.361122222222222,3.778
0.3639,3.776
0.366677777777778,3.775
0.369455555555556,3.774
0.372233333333333,3.772
0.375011111111111,3.771
0.377788888888889,3.77
0.380566666666667,3.768
0.383344444444444,3.767
0.386122222222222,3.766
0.3889,3.764
0.391677777777778,3.763
0.394455555555556,3.762
0.397233333333333,3.761
0.400011111111111,3.759
0.402788888888889,3.758
0.405566666666667,3.757
0.408344444444444,3.755
0.411122222222222,3.754
0.4139,3.753
0.416677777777778,3.752
0.419455555555556,3.75
0.422233333333333,3.749
0.425011111111111,3.748
0.427788888888889,3.746
0.430566666666667,3.745
0.433344444444444,3.744
0.436122222222222,3.743
0.4389,3.741
0.441677777777778,3.74
0.444455555555556,3.739
0.447233333333333,3.738
0.450011111111111,3.736
0.452788888888889,3.735
0.455566666666667,3.734
0.458344444444444,3.733
0.461122222222222,3.732
0.4639,3.73
0.466677777777778,3.729
0.469455555555556,3.728
0.472233333333333,3.727
0.475011111111111,3.726
0.477788888888889,3.724
0.480566666666667,3.723
0.483344444444444,3.722
0.486122222222222,3.721
0.4889,3.72
0.491677777777778,3.718
0.494455555555556,3.717
0.497233333333333,3.716
0.500011111111111,3.715
0.502788888888889,3.714
0.505566666666667,3.713
0.508344444444444,3.711
0.511122222222222,3.71
0.5139,3.709
0.516677777777778,3.708
0.519455555555556,3.707
0.522233333333333,3.706
0.525011111111111,3.705
0.527788888888889,3.703
0.530566666666667,3.702
0.533344444444444,3.701
0.536122222222222,3.7
0.5389,3.699
0.541677777777778,3.698
0.544455555555556,3.697
0.547233333333333,3.696
0.550011111111111,3.695
0.552788888888889,3.694
0.555566666666667,3.692
0.558344444444444,3.691
0.561122222222222,3.69
0.5639,3.689
0.566677777777778,3.688
0.569455555555555,3.687
0.572233333333333,3.686
0.575011111111111,3.685
0.577788888888889,3.684
0.580566666666667,3.683
0.583344444444444,3.681
0.586122222222222,3.68
0.5889,3.679
0.591677777777778,3.678
0.594455555555556,3.677
0.597233333333333,3.676
0.600011111111111,3.675
0.602788888888889,3.674
0.605566666666667,3.673
0.608344444444444,3.672
0.611122222222222,3.671
0.6139,3.67
0.616677777777778,3.669
0.619455555555556,3.668
0.622233333333333,3.667
0.625011111111111,3.666
0.627788888888889,3.665
0.630566666666667,3.664
0.633344444444444,3.663
0.636122222222222,3.662
0.6389,3.661
0.641677777777778,3.66
0.644455555555556,3.659
0.647233333333333,3.658
0.650011111111111,3.657
0.652788888888889,3.656
0.655566666666667,3.655
0.658344444444444,3.654
0.661122222222222,3.653
0.6639,3.652
0.666677777777778,3.651
0.669455555555556,3.65
0.672233333333333,3.649
0.675011111111111,3.648
0.677788888888889,3.647
0.680566666666667,3.646
0.683344444444444,3.645
0.686122222222222,3.644
0.6889,3.643
0.691677777777778,3.642
0.694455555555555,3.641
0.697233333333333,3.64
0.700011111111111,3.639
0.702788888888889,3.638
0.705566666666667,3.637
0.708344444444444,3.636
0.711122222222222,3.635
0.7139,3.635
0.716677777777778,3.634
0.719455555555556,3.633
0.722233333333333,3.632
0.725011111111111,3.631
0.727788888888889,3.63
0.730566666666667,3.629
0.733344444444444,3.628
0.736122222222222,3.627
0.7389,3.626
0.741677777777778,3.625
0.744455555555556,3.625
0.747233333333333,3.623
0.750011111111111,3.623
0.752788888888889,3.622
0.755566666666667,3.621
0.758344444444444,3.62
0.761122222222222,3.619
0.7639,3.618
0.766677777777778,3.618
0.769455555555556,3.617
0.772233333333333,3.616
0.775011111111111,3.615
0.777788888888889,3.614
0.780566666666667,3.613
0.783344444444444,3.612
0.786122222222222,3.612
0.7889,3.611
0.791677777777778,3.61
0.794455555555556,3.609
0.797233333333333,3.608
0.800011111111111,3.607
0.802788888888889,3.606
0.805566666666667,3.605
0.808344444444444,3.605
0.811122222222222,3.604
0.8139,3.603
0.816677777777778,3.602
0.819455555555555,3.601
0.822233333333333,3.601
0.825011111111111,3.6
0.827788888888889,3.599
0.830566666666667,3.598
0.833344444444444,3.597
0.836122222222222,3.597
0.8389,3.596
0.841677777777778,3.595
0.844455555555556,3.594
0.847233333333333,3.593
0.850011111111111,3.593
0.852788888888889,3.592
0.855566666666667,3.591
0.858344444444444,3.59
0.861122222222222,3.589
0.8639,3.589
0.866677777777778,3.588
0.869455555555556,3.587
0.872233333333333,3.586
0.875011111111111,3.585
0.877788888888889,3.585
0.880566666666667,3.584
0.883344444444444,3.583
0.886122222222222,3.582
0.8889,3.581
0.891677777777778,3.581
0.894455555555556,3.58
0.897233333333333,3.579
0.900011111111111,3.578
0.902788888888889,3.578
0.905566666666667,3.577
0.908344444444444,3.576
0.911122222222222,3.576
0.9139,3.575
0.916677777777778,3.574
0.919455555555556,3.573
0.922233333333333,3.572
0.925011111111111,3.572
0.927788888888889,3.571
0.930566666666667,3.57
0.933344444444444,3.569
0.936122222222222,3.569
0.9389,3.568
0.941677777777778,3.567
0.944455555555555,3.566
0.947233333333333,3.565
0.950011111111111,3.565
0.952788888888889,3.564
0.955566666666667,3.563
0.958344444444444,3.562
0.961122222222222,3.561
0.9639,3.561
0.966677777777778,3.56
0.969455555555556,3.559
0.972233333333333,3.558
0.975011111111111,3.557
0.977788888888889,3.557
0.980566666666667,3.556
0.983344444444444,3.555
0.986122222222222,3.554
0.9889,3.554
0.991677777777778,3.553
0.994455555555556,3.552
0.997233333333333,3.551
1.00001111111111,3.55
1.00278888888889,3.549
1.00556666666667,3.548
1.00834444444444,3.548
1.01112222222222,3.547
1.0139,3.546
1.01667777777778,3.545
1.01945555555556,3.544
1.02223333333333,3.544
1.02501111111111,3.543
1.02778888888889,3.542
1.03056666666667,3.541
1.03334444444444,3.54
1.03612222222222,3.539
1.0389,3.538
1.04167777777778,3.538
1.04445555555556,3.537
1.04723333333333,3.536
1.05001111111111,3.535
1.05278888888889,3.534
1.05556666666667,3.533
1.05834444444444,3.532
1.06112222222222,3.532
1.0639,3.531
1.06667777777778,3.53
1.06945555555556,3.529
1.07223333333333,3.528
1.07501111111111,3.527
1.07778888888889,3.526
1.08056666666667,3.525
1.08334444444444,3.524
1.08612222222222,3.524
1.0889,3.523
1.09167777777778,3.522
1.09445555555556,3.521
1.09723333333333,3.52
1.10001111111111,3.519
1.10278888888889,3.518
1.10556666666667,3.517
1.10834444444444,3.516
1.11112222222222,3.515
1.1139,3.514
1.11667777777778,3.513
1.11945555555556,3.512
1.12223333333333,3.511
1.12501111111111,3.51
1.12778888888889,3.509
1.13056666666667,3.508
1.13334444444444,3.507
1.13612222222222,3.506
1.1389,3.505
1.14167777777778,3.504
1.14445555555556,3.503
1.14723333333333,3.502
1.15001111111111,3.501
1.15278888888889,3.5
1.15556666666667,3.499
1.15834444444444,3.498
1.16112222222222,3.497
1.1639,3.496
1.16667777777778,3.494
1.16945555555556,3.493
1.17223333333333,3.492
1.17501111111111,3.491
1.17778888888889,3.49
1.18056666666667,3.489
1.18334444444444,3.488
1.18612222222222,3.486
1.1889,3.485
1.19167777777778,3.484
1.19445555555556,3.483
1.19723333333333,3.482
1.20001111111111,3.48
1.20278888888889,3.479
1.20556666666667,3.478
1.20834444444444,3.477
1.21112222222222,3.475
1.2139,3.474
1.21667777777778,3.473
1.21945555555556,3.471
1.22223333333333,3.47
1.22501111111111,3.469
1.22778888888889,3.467
1.23056666666667,3.466
1.23334444444444,3.464
1.23612222222222,3.463
1.2389,3.461
1.24167777777778,3.46
1.24445555555556,3.458
1.24723333333333,3.457
1.25001111111111,3.455
1.25278888888889,3.454
1.25556666666667,3.453
1.25834444444444,3.451
1.26112222222222,3.449
1.2639,3.447
1.26667777777778,3.446
1.26945555555556,3.444
1.27223333333333,3.443
1.27501111111111,3.441
1.27778888888889,3.439
1.28056666666667,3.437
1.28334444444444,3.435
1.28612222222222,3.434
1.2889,3.432
1.29167777777778,3.43
1.29445555555556,3.428
1.29723333333333,3.426
1.30001111111111,3.424
1.30278888888889,3.422
1.30556666666667,3.42
1.30834444444444,3.418
1.31112222222222,3.416
1.3139,3.414
1.31667777777778,3.411
1.31945555555556,3.409
1.32223333333333,3.407
1.32501111111111,3.405
1.32778888888889,3.402
1.33056666666667,3.4
1.33334444444444,3.397
1.33612222222222,3.395
1.3389,3.392
1.34167777777778,3.39
1.34445555555556,3.387
1.34723333333333,3.385
1.35001111111111,3.382
1.35278888888889,3.379
1.35556666666667,3.376
1.35834444444444,3.373
1.36112222222222,3.37
1.3639,3.367
1.36667777777778,3.364
1.36945555555556,3.36
1.37223333333333,3.357
1.37501111111111,3.353
1.37778888888889,3.35
1.38056666666667,3.346
1.38334444444444,3.342
1.38612222222222,3.339
1.3889,3.335
1.39167777777778,3.331
1.39445555555556,3.326
1.39723333333333,3.322
1.40001111111111,3.318
1.40278888888889,3.313
1.40556666666667,3.308
1.40834444444444,3.304
1.41112222222222,3.299
1.4139,3.294
1.41667777777778,3.288
1.41945555555556,3.283
1.42223333333333,3.277
1.42501111111111,3.271
1.42778888888889,3.265
1.43056666666667,3.258
1.43334444444444,3.252
1.43612222222222,3.245
1.4389,3.238
1.44167777777778,3.231
1.44445555555556,3.223
1.44723333333333,3.215
1.45001111111111,3.206
1.45201666666667,3.2
